,Time (s),Channel 1 (V),Channel 2 (V),Channel 3 (V),Channel4 (V)
0,0.0,117,98,110,111
1,0.0008756567425569177,89,101,105,102
2,0.0017513134851138354,108,86,99,88
3,0.002626970227670753,79,70,76,81
4,0.0035026269702276708,24,48,48,56
5,0.0043782837127845885,69,39,34,39
6,0.006129597197898424,384,401,417,396
7,0.0070052539404553416,393,377,383,374
8,0.00788091068301226,383,375,391,396
9,0.008756567425569177,355,373,372,367
10,0.009632224168126095,373,345,344,345
11,0.010507880910683012,306,333,334,340
12,0.01138353765323993,329,301,290,292
13,0.012259194395796848,292,288,295,285
14,0.013134851138353765,259,260,249,242
15,0.014010507880910683,280,246,241,259
16,0.0148861646234676,232,247,244,239
17,0.01576182136602452,275,225,213,225
18,0.016637478108581436,225,230,220,241
19,0.017513134851138354,244,243,235,232
20,0.01838879159369527,269,266,255,254
21,0.01926444833625219,238,270,267,263
22,0.020140105078809107,288,271,276,266
23,0.021015761821366025,249,283,297,293
24,0.021891418563922942,291,290,291,283
25,0.02276707530647986,266,291,292,287
26,0.023642732049036778,268,289,295,281
27,0.024518388791593695,299,277,300,282
28,0.025394045534150613,246,273,281,269
29,0.02626970227670753,263,238,240,251
30,0.02714535901926445,223,225,226,247
31,0.028021015761821366,208,205,203,211
32,0.028896672504378284,209,179,172,192
33,0.0297723292469352,157,162,164,169
34,0.03064798598949212,194,161,144,146
35,0.03152364273204904,142,148,143,147
36,0.03239929947460595,154,155,159,147
37,0.03327495621716287,158,147,144,151
38,0.03415061295971979,137,163,166,169
39,0.03502626970227671,196,176,165,163
40,0.03590192644483362,177,199,210,203
41,0.03677758318739054,204,202,196,190
42,0.03765323992994746,212,202,210,213
43,0.03852889667250438,196,211,244,221
44,0.03940455341506129,243,215,223,216
45,0.040280210157618214,206,210,226,225
46,0.04115586690017513,203,188,202,193
47,0.04203152364273205,205,191,201,190
48,0.042907180385288964,156,176,183,181
49,0.043782837127845885,179,147,135,135
50,0.0446584938704028,131,132,136,142
51,0.04553415061295972,114,119,120,103
52,0.046409807355516634,122,97,93,110
53,0.047285464098073555,67,84,83,98
54,0.04816112084063047,99,85,84,76
55,0.04903677758318739,93,79,78,90
56,0.049912434325744305,62,83,79,84
57,0.050788091068301226,107,97,95,82
58,0.05166374781085814,115,105,107,112
59,0.05253940455341506,93,118,116,113
60,0.053415061295971976,139,141,129,127
61,0.0542907180385289,126,133,163,154
62,0.05516637478108581,135,153,157,150
63,0.05604203152364273,167,151,154,152
64,0.05691768826619965,141,164,163,152
65,0.05779334500875657,160,148,150,144
66,0.05866900175131348,151,146,155,156
67,0.0595446584938704,126,123,126,123
68,0.06042031523642732,149,111,100,110
69,0.06129597197898424,91,97,97,102
70,0.06217162872154115,77,75,76,72
71,0.06304728546409807,88,65,57,71
72,0.063922942206655,43,43,41,62
73,0.0647985989492119,42,50,39,41
74,0.06567425569176882,52,44,35,45
75,0.06654991243432574,35,42,32,40
76,0.06742556917688267,34,54,44,44
77,0.06830122591943957,46,45,32,44
78,0.0691768826619965,64,61,57,59
79,0.07005253940455342,57,80,89,80
80,0.07092819614711034,93,94,83,86
81,0.07180385288966724,108,108,105,108
82,0.07267950963222417,96,120,109,108
83,0.07355516637478109,134,124,118,111
84,0.07443082311733801,126,127,125,128
85,0.07530647985989491,110,131,121,119
86,0.07618213660245184,143,121,122,121
87,0.07705779334500876,110,116,117,121
88,0.07793345008756568,98,95,95,89
89,0.07880910683012259,97,72,72,81
90,0.0796847635726795,53,63,63,71
91,0.08056042031523643,51,33,28,31
92,0.08143607705779335,59,40,33,34
93,0.08231173380035026,23,29,28,28
94,0.08318739054290718,26,25,26,7
95,0.0840630472854641,39,14,0,6
96,0.08493870402802102,23,25,29,28
97,0.08581436077057793,12,32,29,20
98,0.08669001751313485,47,21,20,17
99,0.08756567425569177,49,49,52,56
100,0.08844133099824869,40,77,77,62
101,0.0893169877408056,70,73,80,68
102,0.09019264448336252,88,76,89,89
103,0.09106830122591944,79,96,79,78
104,0.09194395796847636,96,107,110,107
105,0.09281961471103327,124,104,108,113
106,0.09369527145359019,103,116,117,114
107,0.09457092819614711,112,121,120,110
108,0.09544658493870403,118,100,109,113
109,0.09632224168126094,76,91,108,108
110,0.09719789842381786,91,77,80,85
111,0.09807355516637478,74,43,49,65
112,0.0989492119089317,42,50,47,58
113,0.09982486865148861,43,33,29,22
114,0.10070052539404553,39,20,15,15
115,0.10157618213660245,8,16,18,12
116,0.10245183887915937,17,27,16,12
117,0.10332749562171628,30,21,19,6
118,0.1042031523642732,25,29,28,35
119,0.10507880910683012,3,28,30,27
120,0.10595446584938704,40,36,33,18
121,0.10683012259194395,67,53,35,54
122,0.10770577933450087,37,72,78,71
123,0.1085814360770578,64,74,78,65
124,0.10945709281961472,107,80,85,81
125,0.11033274956217162,80,98,111,113
126,0.11120840630472854,81,108,115,113
127,0.11208406304728546,128,102,108,99
128,0.11295971978984239,101,120,128,128
129,0.1138353765323993,93,99,108,115
130,0.11471103327495621,118,89,84,91
131,0.11558669001751314,79,92,97,89
132,0.11646234676007006,68,56,67,59
133,0.11733800350262696,91,46,31,42
134,0.11821366024518389,40,45,45,43
135,0.1190893169877408,28,37,34,24
136,0.11996497373029773,32,9,8,15
137,0.12084063047285463,30,7,17,24
138,0.12171628721541156,3,24,24,3
139,0.12259194395796848,4,26,20,17
140,0.1234676007005254,50,24,25,19
141,0.1243432574430823,11,23,17,26
142,0.12521891418563924,23,48,43,35
143,0.12609457092819615,60,51,55,49
144,0.12697022767075306,65,65,67,67
145,0.12784588441331,54,87,90,81
146,0.1287215411558669,73,78,78,72
147,0.1295971978984238,117,102,112,103
148,0.13047285464098074,89,94,107,98
149,0.13134851138353765,96,111,115,105
150,0.13222416812609458,114,100,95,98
151,0.1330998248686515,89,98,121,118
152,0.1339754816112084,83,94,98,93
153,0.13485113835376533,107,70,74,79
154,0.13572679509632224,77,68,71,77
155,0.13660245183887915,47,38,42,47
156,0.13747810858143608,49,30,33,34
157,0.138353765323993,60,22,15,25
158,0.13922942206654992,14,16,30,25
159,0.14010507880910683,2,19,11,29
160,0.14098073555166374,43,17,16,16
161,0.14185639229422067,18,9,8,20
162,0.14273204903677758,9,43,32,32
163,0.1436077057793345,18,22,30,12
164,0.14448336252189142,67,36,46,44
165,0.14535901926444833,54,57,88,68
166,0.14623467600700527,44,71,69,54
167,0.14711033274956217,103,82,89,81
168,0.14798598949211908,100,83,91,87
169,0.14886164623467601,77,117,121,122
170,0.14973730297723292,117,114,124,106
171,0.15061295971978983,132,105,121,121
172,0.15148861646234676,76,116,123,125
173,0.15236427320490367,112,106,109,96
174,0.1532399299474606,133,82,85,107
175,0.15411558669001751,59,86,90,95
176,0.15499124343257442,48,61,70,71
177,0.15586690017513136,81,27,18,35
178,0.15674255691768826,52,38,43,47
179,0.15761821366024517,2,27,24,32
180,0.1584938704028021,43,14,10,22
181,0.159369527145359,68,25,19,25
182,0.16024518388791595,5,45,51,56
183,0.16112084063047286,15,46,44,29
184,0.16199649737302976,87,25,25,28
185,0.1628721541155867,65,48,47,40
186,0.1637478108581436,27,78,84,72
187,0.1646234676007005,82,74,45,45
188,0.16549912434325745,137,81,79,86
189,0.16637478108581435,76,107,123,116
190,0.1672504378283713,88,126,143,119
191,0.1681260945709282,160,102,105,116
192,0.1690017513134851,97,129,138,140
193,0.16987740805604204,97,132,138,128
194,0.17075306479859895,157,96,96,132
195,0.17162872154115585,107,106,116,116
196,0.1725043782837128,62,99,102,100
197,0.1733800350262697,124,64,63,73
198,0.17425569176882663,79,53,47,64
199,0.17513134851138354,16,66,61,56
200,0.17600700525394045,42,38,27,30
201,0.17688266199649738,86,24,17,27
202,0.1777583187390543,0,23,22,30
203,0.1786339754816112,4,48,47,35
204,0.17950963222416813,59,35,38,20
205,0.18038528896672504,49,17,17,32
206,0.18126094570928197,18,59,57,53
207,0.18213660245183888,32,65,61,52
208,0.1830122591943958,90,62,79,64
209,0.18388791593695272,86,68,73,80
210,0.18476357267950963,55,106,109,104
211,0.18563922942206654,90,98,111,99
212,0.18651488616462347,138,109,115,109
213,0.18739054290718038,90,117,124,117
214,0.18826619964973731,110,125,122,113
215,0.18914185639229422,143,109,120,118
216,0.19001751313485113,111,111,122,115
217,0.19089316987740806,73,100,103,96
218,0.19176882661996497,93,63,68,69
219,0.19264448336252188,83,43,35,54
220,0.19352014010507881,30,54,50,56
221,0.19439579684763572,16,22,27,26
222,0.19527145359019266,48,16,1,7
223,0.19614711033274956,34,18,17,21
224,0.19702276707530647,0,26,31,26
225,0.1978984238178634,19,32,34,20
226,0.1987740805604203,46,19,21,21
227,0.19964973730297722,57,30,29,30
228,0.20052539404553416,6,51,67,51
229,0.20140105078809106,46,67,80,54
230,0.202276707530648,89,57,65,70
231,0.2031523642732049,90,75,76,82
232,0.2040280210157618,52,99,107,104
233,0.20490367775831875,90,98,110,101
234,0.20577933450087565,134,97,99,111
235,0.20665499124343256,100,115,119,122
236,0.2075306479859895,94,124,130,112
237,0.2084063047285464,135,101,99,101
238,0.20928196147110334,114,85,81,101
239,0.21015761821366025,53,88,91,83
240,0.21103327495621715,79,73,68,65
241,0.2119089316987741,77,34,25,48
242,0.212784588441331,34,35,34,46
243,0.2136602451838879,21,41,43,41
244,0.21453590192644484,36,10,5,22
245,0.21541155866900175,63,16,7,22
246,0.21628721541155868,22,22,21,30
247,0.2171628721541156,7,40,46,37
248,0.2180385288966725,40,22,32,30
249,0.21891418563922943,69,32,29,33
250,0.21978984238178634,54,54,59,53
251,0.22066549912434325,37,75,84,79
252,0.22154115586690018,89,83,90,76
253,0.2224168126094571,114,82,82,83
254,0.22329246935201402,86,95,90,94
255,0.22416812609457093,85,125,131,119
256,0.22504378283712784,120,113,119,112
257,0.22591943957968477,142,130,123,118
258,0.22679509632224168,99,127,138,132
259,0.2276707530647986,90,107,110,102
260,0.22854640980735552,124,84,83,77
261,0.22942206654991243,86,63,62,74
262,0.23029772329246936,38,73,83,77
263,0.23117338003502627,41,46,39,29
264,0.23204903677758318,70,18,6,23
265,0.2329246935201401,41,16,17,37
266,0.23380035026269702,0,32,20,27
267,0.23467600700525393,21,26,28,16
268,0.23555166374781086,58,15,12,15
269,0.23642732049036777,47,26,13,18
270,0.2373029772329247,24,43,50,33
271,0.2381786339754816,26,50,57,49
272,0.23905429071803852,88,49,55,41
273,0.23992994746059546,87,65,65,73
274,0.24080560420315236,58,98,108,96
275,0.24168126094570927,65,104,112,89
276,0.2425569176882662,128,109,111,108
277,0.2434325744308231,128,117,118,116
278,0.24430823117338005,81,131,153,132
279,0.24518388791593695,106,119,119,120
280,0.24605954465849386,154,105,91,105
281,0.2469352014010508,80,105,103,100
282,0.2478108581436077,45,89,101,86
283,0.2486865148861646,102,52,48,47
284,0.24956217162872155,95,36,27,49
285,0.2504378283712785,12,44,48,52
286,0.2513134851138354,4,36,44,39
287,0.2521891418563923,67,17,10,0
288,0.2530647985989492,98,33,36,42
289,0.2539404553415061,8,41,47,56
290,0.2548161120840631,12,61,79,55
291,0.25569176882662,58,34,17,19
292,0.2565674255691769,112,51,46,56
293,0.2574430823117338,60,87,85,85
294,0.2583187390542907,43,91,107,89
295,0.2591943957968476,88,88,91,88
296,0.2600700525394046,143,91,90,89
297,0.2609457092819615,104,116,137,125
298,0.2618213660245184,90,131,140,132
299,0.2626970227670753,143,114,114,115
300,0.2635726795096322,146,115,113,116
301,0.26444833625218916,107,125,137,131
302,0.26532399299474607,93,120,129,118
303,0.266199649737303,121,91,109,93
304,0.2670753064798599,114,74,70,80
305,0.2679509632224168,51,53,53,61
306,0.26882661996497376,36,57,58,50
307,0.26970227670753066,38,16,7,24
308,0.27057793345008757,51,21,19,31
309,0.2714535901926445,23,26,28,26
310,0.2723292469352014,14,42,54,37
311,0.2732049036777583,14,24,12,15
312,0.27408056042031526,64,27,22,23
313,0.27495621716287216,53,38,43,44
314,0.27583187390542907,27,57,71,65
315,0.276707530647986,40,79,89,64
316,0.2775831873905429,88,62,64,62
317,0.27845884413309985,113,83,90,99
318,0.27933450087565675,93,103,121,112
319,0.28021015761821366,82,125,135,123
320,0.28108581436077057,120,115,107,118
321,0.2819614711033275,146,105,95,107
322,0.28283712784588444,107,112,125,121
323,0.28371278458844135,77,122,119,114
324,0.28458844133099825,108,88,83,83
325,0.28546409807355516,106,54,58,58
326,0.28633975481611207,47,60,54,66
327,0.287215411558669,20,65,70,65
328,0.28809106830122594,42,25,19,24
329,0.28896672504378285,63,6,3,12
330,0.28984238178633975,39,12,18,15
331,0.29071803852889666,6,54,55,41
332,0.29159369527145357,15,47,58,43
333,0.29246935201401053,66,35,32,37
334,0.29334500875656744,77,16,13,24
335,0.29422066549912435,53,73,65,61
336,0.29509632224168125,27,91,94,77
337,0.29597197898423816,82,95,90,77
338,0.2968476357267951,131,75,82,82
339,0.29772329246935203,133,96,104,104
340,0.29859894921190894,66,142,149,128
341,0.29947460595446584,103,136,145,128
342,0.30035026269702275,161,112,123,127
343,0.30122591943957966,125,96,107,106
344,0.3021015761821366,79,133,131,124
345,0.30297723292469353,90,125,121,114
346,0.30385288966725044,127,67,58,75
347,0.30472854640980734,108,61,61,61
348,0.30560420315236425,29,74,77,67
349,0.3064798598949212,25,68,54,55
350,0.3073555166374781,54,33,30,35
351,0.30823117338003503,96,19,15,29
352,0.30910683012259194,47,51,32,35
353,0.30998248686514884,14,72,85,65
354,0.3108581436077058,51,71,62,46
355,0.3117338003502627,108,30,28,41
356,0.3126094570928196,109,56,56,58
357,0.3134851138353765,45,102,110,100
358,0.31436077057793343,56,126,125,108
359,0.31523642732049034,144,93,93,87
360,0.3161120840630473,160,111,118,118
361,0.3169877408056042,111,146,163,150
362,0.3178633975481611,93,142,146,148
363,0.318739054290718,157,114,121,135
364,0.31961471103327493,141,101,118,126
365,0.3204903677758319,95,125,136,122
366,0.3213660245183888,85,120,115,119
367,0.3222416812609457,114,69,73,85
368,0.3231173380035026,103,57,60,70
369,0.3239929947460595,72,55,43,42
370,0.3248686514886165,40,55,64,51
371,0.3257443082311734,40,43,39,40
372,0.3266199649737303,26,5,8,26
373,0.3274956217162872,52,19,21,12
374,0.3283712784588441,42,30,18,15
375,0.329246935201401,0,40,33,40
376,0.330122591943958,22,52,47,48
377,0.3309982486865149,52,49,49,60
378,0.3318739054290718,80,45,52,59
379,0.3327495621716287,81,60,63,61
380,0.3336252189141856,63,90,104,100
381,0.3345008756567426,73,112,121,122
382,0.3353765323992995,123,110,112,111
383,0.3362521891418564,137,89,97,104
384,0.3371278458844133,112,118,129,122
385,0.3380035026269702,73,115,111,111
386,0.33887915936952717,116,106,93,99
387,0.3397548161120841,133,72,73,70
388,0.340630472854641,99,75,68,71
389,0.3415061295971979,30,71,71,72
390,0.3423817863397548,15,57,55,44
391,0.3432574430823117,58,22,25,28
392,0.34413309982486867,81,18,16,10
393,0.3450087565674256,31,23,20,18
394,0.3458844133099825,0,48,40,30
395,0.3467600700525394,0,40,31,29
396,0.3476357267950963,51,20,19,28
397,0.34851138353765326,76,19,24,31
398,0.34938704028021017,62,54,53,43
399,0.3502626970227671,18,70,70,62
400,0.351138353765324,49,106,102,91
401,0.3520140105078809,96,80,82,100
402,0.35288966725043786,110,73,82,89
403,0.35376532399299476,117,106,123,124
404,0.35464098073555167,102,125,138,130
405,0.3555166374781086,111,112,124,117
406,0.3563922942206655,122,104,114,118
407,0.3572679509632224,134,111,107,107
408,0.35814360770577935,97,92,99,100
409,0.35901926444833626,69,97,103,100
410,0.35989492119089317,58,74,64,77
411,0.3607705779334501,77,44,48,61
412,0.361646234676007,74,23,15,23
413,0.36252189141856395,54,34,28,34
414,0.36339754816112085,2,31,24,26
415,0.36427320490367776,6,37,27,32
416,0.36514886164623467,52,24,13,10
417,0.3660245183887916,63,18,10,17
418,0.36690017513134854,46,35,34,28
419,0.36777583187390545,23,70,67,50
420,0.36865148861646235,21,76,64,59
421,0.36952714535901926,65,75,83,67
422,0.37040280210157617,104,60,74,80
423,0.3712784588441331,119,87,91,95
424,0.37215411558669004,75,117,121,114
425,0.37302977232924694,67,121,120,113
426,0.37390542907180385,111,115,129,122
427,0.37478108581436076,138,109,130,113
428,0.37565674255691767,131,110,128,119
429,0.37653239929947463,104,117,111,111
430,0.37740805604203154,81,87,81,89
431,0.37828371278458844,77,62,65,77
432,0.37915936952714535,78,39,32,39
433,0.38003502626970226,73,40,37,39
434,0.3809106830122592,23,27,17,21
435,0.38178633975481613,9,41,24,31
436,0.38266199649737304,12,21,9,21
437,0.38353765323992994,29,0,8,5
438,0.38441330998248685,49,17,23,18
439,0.38528896672504376,33,15,16,25
440,0.3861646234676007,7,48,45,42
441,0.38704028021015763,33,73,58,61
442,0.38791593695271454,57,54,59,65
443,0.38879159369527144,110,66,75,68
444,0.38966725043782835,94,70,81,76
445,0.3905429071803853,103,110,109,86
446,0.3914185639229422,97,127,139,127
447,0.3922942206654991,91,112,117,118
448,0.39316987740805603,121,106,124,107
449,0.39404553415061294,134,107,114,106
450,0.3949211908931699,115,108,111,103
451,0.3957968476357268,88,108,103,94
452,0.3966725043782837,62,81,84,88
453,0.3975481611208406,69,42,52,54
454,0.39842381786339753,77,30,36,32
455,0.39929947460595444,61,34,26,27
456,0.4001751313485114,10,29,29,27
457,0.4010507880910683,1,41,33,24
458,0.4019264448336252,25,27,25,26
459,0.4028021015761821,37,11,14,5
460,0.40367775831873903,47,14,23,17
461,0.404553415061296,48,36,41,27
462,0.4054290718038529,36,50,59,45
463,0.4063047285464098,42,71,69,63
464,0.4071803852889667,53,66,76,67
465,0.4080560420315236,79,59,88,90
466,0.4089316987740806,94,78,89,91
467,0.4098073555166375,104,106,104,112
468,0.4106830122591944,100,120,114,121
469,0.4115586690017513,99,121,108,114
470,0.4124343257443082,112,105,125,121
471,0.4133099824868651,131,94,105,105
472,0.4141856392294221,112,91,96,88
473,0.415061295971979,79,85,74,78
474,0.4159369527145359,50,78,76,79
475,0.4168126094570928,53,54,44,56
476,0.4176882661996497,58,26,27,34
477,0.4185639229422067,38,15,19,20
478,0.4194395796847636,35,32,17,15
479,0.4203152364273205,0,17,12,16
480,0.4211908931698774,4,28,32,41
481,0.4220665499124343,18,20,19,33
482,0.42294220665499127,37,16,16,29
483,0.4238178633975482,60,42,37,36
484,0.4246935201401051,63,48,41,33
485,0.425569176882662,60,70,68,58
486,0.4264448336252189,61,90,87,73
487,0.4273204903677758,68,92,93,81
488,0.42819614711033277,92,90,95,84
489,0.4290718038528897,113,104,114,99
490,0.4299474605954466,121,111,121,106
491,0.4308231173380035,100,115,125,119
492,0.4316987740805604,108,131,111,107
493,0.43257443082311736,102,107,122,95
494,0.43345008756567427,87,78,90,90
495,0.4343257443082312,90,62,72,72
496,0.4352014010507881,75,61,55,56
497,0.436077057793345,52,46,45,39
498,0.43695271453590195,25,24,26,33
499,0.43782837127845886,21,34,24,23
500,0.43870402802101577,11,3,3,14
501,0.4395796847635727,30,8,11,4
502,0.4404553415061296,40,23,16,21
503,0.4413309982486865,41,32,27,24
504,0.44220665499124345,24,36,27,26
505,0.44308231173380036,21,34,39,40
506,0.44395796847635727,43,53,34,50
507,0.4448336252189142,66,50,59,55
508,0.4457092819614711,83,74,79,68
509,0.44658493870402804,84,80,88,84
510,0.44746059544658495,93,99,99,100
511,0.44833625218914186,101,122,124,117
512,0.44921190893169877,96,117,103,119
513,0.4500875656742557,107,106,114,95
514,0.45096322241681264,114,92,115,114
515,0.45183887915936954,117,87,96,114
516,0.45271453590192645,94,76,78,86
517,0.45359019264448336,78,78,64,68
518,0.45446584938704027,50,51,37,43
519,0.4553415061295972,48,53,45,52
520,0.45621716287215414,52,22,28,34
521,0.45709281961471104,53,28,26,21
522,0.45796847635726795,22,10,8,21
523,0.45884413309982486,32,24,18,21
524,0.45971978984238177,15,36,26,10
525,0.46059544658493873,20,32,25,19
526,0.46147110332749564,19,17,22,24
527,0.46234676007005254,51,26,47,39
528,0.46322241681260945,61,53,62,53
529,0.46409807355516636,60,70,67,62
530,0.4649737302977233,75,91,92,82
531,0.4658493870402802,68,87,83,85
532,0.46672504378283713,89,104,104,105
533,0.46760070052539404,113,115,124,110
534,0.46847635726795095,114,90,113,111
535,0.46935201401050786,124,105,114,111
536,0.4702276707530648,106,104,98,105
537,0.4711033274956217,85,100,93,90
538,0.47197898423817863,66,73,67,69
539,0.47285464098073554,72,63,65,68
540,0.47373029772329245,58,41,47,54
541,0.4746059544658494,40,24,20,31
542,0.4754816112084063,34,23,20,17
