,Time (s),Channel 1 (V),Channel 2 (V),Channel 3 (V),Channel4 (V)
0,0.0008756567425569177,56,61,53,65
1,0.0017513134851138354,19,85,71,58
2,0.0035026269702276708,166,155,151,140
3,0.0043782837127845885,206,124,131,146
4,0.005253940455341506,122,141,164,163
5,0.006129597197898424,83,146,147,131
6,0.0070052539404553416,119,92,89,98
7,0.00788091068301226,146,62,63,81
8,0.008756567425569177,56,61,53,65
9,0.009632224168126095,19,85,71,58
10,0.010507880910683012,51,446,399,392
11,0.01138353765323993,435,410,407,397
12,0.012259194395796848,362,429,435,418
13,0.013134851138353765,393,395,412,395
14,0.014010507880910683,425,366,358,374
15,0.0148861646234676,335,378,393,378
16,0.01576182136602452,334,346,350,340
17,0.016637478108581436,367,299,296,318
18,0.017513134851138354,294,296,295,299
19,0.01838879159369527,242,279,279,272
20,0.01926444833625219,276,228,221,229
21,0.020140105078809107,246,223,216,230
22,0.021015761821366025,200,245,260,239
23,0.021891418563922942,231,225,215,215
24,0.02276707530647986,273,214,198,212
25,0.023642732049036778,210,252,247,247
26,0.024518388791593695,213,258,273,263
27,0.025394045534150613,315,261,261,264
28,0.02626970227670753,281,286,301,301
29,0.02714535901926445,260,322,324,306
30,0.028021015761821366,328,293,280,285
31,0.028896672504378284,344,284,292,314
32,0.0297723292469352,255,304,317,310
33,0.03064798598949212,289,299,288,286
34,0.03152364273204904,332,252,237,256
35,0.03239929947460595,228,243,254,246
36,0.03327495621716287,183,231,224,209
37,0.03415061295971979,242,183,163,171
38,0.03502626970227671,210,170,160,178
39,0.03590192644483362,100,159,166,166
40,0.03677758318739054,154,145,137,133
41,0.03765323992994746,189,115,103,120
42,0.03852889667250438,107,147,145,145
43,0.03940455341506129,115,162,158,137
44,0.040280210157618214,210,133,135,134
45,0.04115586690017513,192,176,187,189
46,0.04203152364273205,131,218,226,216
47,0.042907180385288964,227,227,221,200
48,0.043782837127845885,277,205,212,220
49,0.0446584938704028,179,236,251,238
50,0.04553415061295972,188,250,256,224
51,0.046409807355516634,284,204,207,219
52,0.047285464098073555,231,200,210,213
53,0.04816112084063047,149,197,210,188
54,0.04903677758318739,187,164,160,164
55,0.049912434325744305,189,115,108,139
56,0.050788091068301226,100,127,125,129
57,0.05166374781085814,79,112,98,95
58,0.05253940455341506,133,74,47,61
59,0.053415061295971976,112,56,53,77
60,0.0542907180385289,48,92,77,78
61,0.05516637478108581,55,97,81,59
62,0.05604203152364273,109,80,64,66
63,0.05691768826619965,127,71,72,85
64,0.05779334500875657,100,119,122,120
65,0.05866900175131348,81,136,153,135
66,0.0595446584938704,161,148,151,135
67,0.06042031523642732,184,150,158,153
68,0.06129597197898424,138,175,188,173
69,0.06217162872154115,147,182,192,175
70,0.06304728546409807,189,150,172,175
71,0.063922942206655,183,165,174,166
72,0.0647985989492119,109,160,175,162
73,0.06567425569176882,127,135,132,134
74,0.06654991243432574,160,80,68,92
75,0.06742556917688267,103,74,74,92
76,0.06830122591943957,44,80,84,80
77,0.0691768826619965,40,61,56,55
78,0.07005253940455342,80,28,15,35
79,0.07092819614711034,89,28,20,35
80,0.07180385288966724,16,51,56,50
81,0.07267950963222417,22,84,74,46
82,0.07355516637478109,63,51,46,44
83,0.07443082311733801,124,44,46,57
84,0.07530647985989491,74,80,90,101
85,0.07618213660245184,47,129,122,108
86,0.07705779334500876,107,119,123,109
87,0.07793345008756568,182,111,127,130
88,0.07880910683012259,139,146,159,166
89,0.0796847635726795,102,177,181,154
90,0.08056042031523643,164,146,150,153
91,0.08143607705779335,185,120,137,150
92,0.08231173380035026,126,147,152,151
93,0.08318739054290718,83,157,146,134
94,0.0840630472854641,134,91,94,105
95,0.08493870402802102,140,55,51,90
96,0.08581436077057793,51,71,61,76
97,0.08669001751313485,20,87,78,59
98,0.08756567425569177,49,47,31,30
99,0.08844133099824869,92,19,17,23
100,0.0893169877408056,80,49,43,45
101,0.09019264448336252,14,71,74,51
102,0.09106830122591944,27,83,81,57
103,0.09194395796847636,93,58,59,58
104,0.09281961471103327,140,54,58,66
105,0.09369527145359019,96,101,95,98
106,0.09457092819614711,51,148,137,136
107,0.09544658493870403,109,137,134,134
108,0.09632224168126094,198,100,119,130
109,0.09719789842381786,146,146,160,163
110,0.09807355516637478,90,209,213,187
111,0.0989492119089317,159,179,161,158
112,0.09982486865148861,212,106,130,149
113,0.10070052539404553,137,154,145,141
114,0.10157618213660245,64,155,142,130
115,0.10245183887915937,124,98,78,89
116,0.10332749562171628,137,44,50,68
117,0.1042031523642732,70,55,55,63
118,0.10507880910683012,22,82,76,62
119,0.10595446584938704,21,61,41,33
120,0.10683012259194395,86,25,18,35
121,0.10770577933450087,79,22,24,45
122,0.1085814360770578,21,51,56,52
123,0.10945709281961472,12,82,69,60
124,0.11033274956217162,57,83,71,67
125,0.11120840630472854,120,61,70,68
126,0.11208406304728546,116,80,103,101
127,0.11295971978984239,107,135,138,124
128,0.1138353765323993,104,152,143,146
129,0.11471103327495621,160,141,152,150
130,0.11558669001751314,194,148,161,151
131,0.11646234676007006,150,160,159,159
132,0.11733800350262696,125,167,167,156
133,0.11821366024518389,153,143,147,150
134,0.1190893169877408,153,96,119,125
135,0.11996497373029773,123,103,99,100
136,0.12084063047285463,51,100,89,89
137,0.12171628721541156,44,74,66,64
138,0.12259194395796848,68,22,18,28
139,0.1234676007005254,84,21,11,17
140,0.1243432574430823,33,36,32,30
141,0.12521891418563924,9,64,45,35
142,0.12609457092819615,17,65,54,48
143,0.12697022767075306,58,28,41,42
144,0.12784588441331,83,12,33,40
145,0.1287215411558669,49,58,61,68
146,0.1295971978984238,19,100,102,83
147,0.13047285464098074,68,124,119,94
148,0.13134851138353765,153,102,94,105
149,0.13222416812609458,169,108,122,119
150,0.1330998248686515,111,162,171,158
151,0.1339754816112084,93,170,171,153
152,0.13485113835376533,170,122,137,142
153,0.13572679509632224,185,116,138,131
154,0.13660245183887915,128,140,142,129
155,0.13747810858143608,68,129,122,107
156,0.138353765323993,104,79,77,85
157,0.13922942206654992,111,35,43,58
158,0.14010507880910683,70,47,35,43
159,0.14098073555166374,28,53,37,36
160,0.14185639229422067,0,44,35,35
161,0.14273204903677758,23,34,29,29
162,0.1436077057793345,48,4,13,12
163,0.14448336252189142,53,23,30,22
164,0.14535901926444833,34,42,43,44
165,0.14623467600700527,0,56,55,64
166,0.14711033274956217,32,79,92,78
167,0.14798598949211908,69,55,72,70
168,0.14886164623467601,124,69,96,90
169,0.14973730297723292,122,98,107,114
170,0.15061295971978983,97,152,153,144
171,0.15148861646234676,112,164,162,142
172,0.15236427320490367,151,123,145,143
173,0.1532399299474606,171,112,132,134
174,0.15411558669001751,123,141,137,137
175,0.15499124343257442,87,155,144,147
176,0.15586690017513136,112,104,110,119
177,0.15674255691768826,138,54,68,85
178,0.15761821366024517,89,37,30,56
179,0.1584938704028021,39,66,54,65
180,0.159369527145359,22,62,38,42
181,0.16024518388791595,39,26,21,24
182,0.16112084063047286,60,17,37,19
183,0.16199649737302976,52,23,28,30
184,0.1628721541155867,36,54,28,20
185,0.1637478108581436,23,66,48,50
186,0.1646234676007005,28,61,50,51
187,0.16549912434325745,73,60,74,52
188,0.16637478108581435,108,68,80,69
189,0.1672504378283713,118,98,98,103
190,0.1681260945709282,94,124,117,121
191,0.1690017513134851,107,153,149,142
192,0.16987740805604204,140,140,170,148
193,0.17075306479859895,169,102,122,134
194,0.17162872154115585,153,138,130,153
195,0.1725043782837128,107,166,152,158
196,0.1733800350262697,114,133,133,130
197,0.17425569176882663,127,84,101,89
198,0.17513134851138354,117,67,70,72
199,0.17600700525394045,67,66,49,61
200,0.17688266199649738,44,74,50,56
201,0.1777583187390543,21,46,31,36
202,0.1786339754816112,31,13,18,21
203,0.17950963222416813,46,13,19,18
204,0.18038528896672504,56,28,27,34
205,0.18126094570928197,35,48,25,39
206,0.18213660245183888,18,57,44,40
207,0.1830122591943958,31,71,83,60
208,0.18388791593695272,70,65,100,71
209,0.18476357267950963,108,59,91,89
210,0.18563922942206654,119,95,98,112
211,0.18651488616462347,94,122,124,131
212,0.18739054290718038,96,152,141,137
213,0.18826619964973731,136,139,157,147
214,0.18914185639229422,175,116,144,144
215,0.19001751313485113,157,133,140,138
216,0.19089316987740806,115,144,131,144
217,0.19176882661996497,100,127,137,122
218,0.19264448336252188,104,90,111,105
219,0.19352014010507881,107,54,67,70
220,0.19439579684763572,72,55,53,57
221,0.19527145359019266,34,48,41,45
222,0.19614711033274956,16,50,25,27
223,0.19702276707530647,11,25,30,23
224,0.1978984238178634,27,10,22,13
225,0.1987740805604203,49,9,14,13
226,0.19964973730297722,41,30,27,35
227,0.20052539404553416,33,49,40,52
228,0.20140105078809106,37,75,61,68
229,0.202276707530648,48,80,87,76
230,0.2031523642732049,85,83,108,91
231,0.2040280210157618,125,79,103,103
232,0.20490367775831875,118,113,98,114
233,0.20577933450087565,104,140,128,145
234,0.20665499124343256,132,163,162,140
235,0.2075306479859895,143,145,166,151
236,0.2084063047285464,148,122,159,150
237,0.20928196147110334,144,121,125,138
238,0.21015761821366025,113,115,101,122
239,0.21103327495621715,75,101,86,92
240,0.2119089316987741,66,64,67,68
241,0.212784588441331,66,32,44,47
242,0.2136602451838879,66,31,22,36
243,0.21453590192644484,46,28,0,19
244,0.21541155866900175,21,34,17,31
245,0.21628721541155868,20,50,33,26
246,0.2171628721541156,26,31,38,22
247,0.2180385288966725,33,29,41,29
248,0.21891418563922943,41,23,36,36
249,0.21978984238178634,63,43,43,45
250,0.22066549912434325,71,71,56,71
251,0.22154115586690018,81,96,90,91
252,0.2224168126094571,84,113,118,103
253,0.22329246935201402,94,107,128,114
254,0.22416812609457093,114,120,144,136
255,0.22504378283712784,151,132,142,141
256,0.22591943957968477,144,135,144,141
257,0.22679509632224168,137,150,138,138
258,0.2276707530647986,112,126,125,116
259,0.22854640980735552,106,89,109,109
260,0.22942206654991243,109,74,80,83
261,0.23029772329246936,86,54,30,55
262,0.23117338003502627,74,55,31,45
263,0.23204903677758318,50,49,27,20
264,0.2329246935201401,25,30,25,14
265,0.23380035026269702,14,13,24,15
266,0.23467600700525393,25,13,11,11
267,0.23555166374781086,51,25,30,33
268,0.23642732049036777,48,34,24,28
269,0.2373029772329247,34,32,35,33
270,0.2381786339754816,44,68,64,63
271,0.23905429071803852,50,79,78,77
272,0.23992994746059546,71,83,104,99
273,0.24080560420315236,108,99,114,97
274,0.24168126094570927,131,112,120,134
275,0.2425569176882662,140,128,117,139
276,0.2434325744308231,134,158,137,139
277,0.24430823117338005,132,149,152,137
278,0.24518388791593695,133,137,152,142
279,0.24605954465849386,145,121,129,135
280,0.2469352014010508,123,93,69,100
281,0.2478108581436077,103,92,65,86
282,0.2486865148861646,69,73,55,56
283,0.24956217162872155,48,59,63,50
284,0.2504378283712785,36,46,22,21
285,0.2513134851138354,29,18,21,16
286,0.2521891418563923,28,12,13,21
287,0.2530647985989492,35,19,15,24
288,0.2539404553415061,24,27,21,33
289,0.2548161120840631,23,39,34,27
290,0.25569176882662,26,52,61,43
291,0.2565674255691769,41,56,86,73
292,0.2574430823117338,66,62,79,75
293,0.2583187390542907,95,79,94,105
294,0.2591943957968476,108,93,97,112
295,0.2600700525394046,111,116,115,120
296,0.2609457092819615,118,136,158,129
297,0.2618213660245184,121,141,149,129
298,0.2626970227670753,142,135,156,147
299,0.2635726795096322,139,118,142,149
300,0.26444833625218916,138,119,117,122
301,0.26532399299474607,113,95,88,91
302,0.266199649737303,88,94,82,82
303,0.2670753064798599,41,68,68,72
304,0.2679509632224168,39,47,58,51
305,0.26882661996497376,12,14,18,42
306,0.26970227670753066,23,2,9,27
307,0.27057793345008757,29,27,36,37
308,0.2714535901926445,31,12,7,22
309,0.2723292469352014,28,36,23,21
310,0.2732049036777583,20,41,31,29
311,0.27408056042031526,28,38,44,39
312,0.27495621716287216,41,50,65,61
313,0.27583187390542907,67,54,80,77
314,0.276707530647986,84,63,82,90
315,0.2775831873905429,97,86,99,96
316,0.27845884413309985,116,106,102,101
317,0.27933450087565675,128,143,143,128
318,0.28021015761821366,117,138,148,141
319,0.28108581436077057,127,137,145,156
320,0.2819614711033275,133,121,129,146
321,0.28283712784588444,140,112,122,131
322,0.28371278458844135,119,100,99,94
323,0.28458844133099825,96,93,73,73
324,0.28546409807355516,59,70,70,72
325,0.28633975481611207,51,63,34,48
326,0.287215411558669,29,28,14,30
327,0.28809106830122594,15,10,19,37
328,0.28896672504378285,17,15,21,29
329,0.28984238178633975,11,7,16,20
330,0.29071803852889666,24,30,27,14
331,0.29159369527145357,14,29,19,24
332,0.29246935201401053,14,35,28,33
333,0.29334500875656744,33,56,43,55
334,0.29422066549912435,46,59,62,71
335,0.29509632224168125,47,56,71,91
336,0.29597197898423816,84,74,89,102
337,0.2968476357267951,101,101,120,116
338,0.29772329246935203,114,114,118,122
339,0.29859894921190894,131,146,154,130
340,0.29947460595446584,126,132,135,144
341,0.30035026269702275,132,136,137,142
342,0.30122591943957966,128,125,124,132
343,0.3021015761821366,104,94,103,106
344,0.30297723292469353,89,74,85,89
345,0.30385288966725044,74,61,64,63
346,0.30472854640980734,59,54,41,44
347,0.30560420315236425,46,40,23,26
348,0.3064798598949212,26,22,17,18
349,0.3073555166374781,16,11,9,10
350,0.30823117338003503,18,22,29,26
351,0.30910683012259194,4,5,24,25
352,0.30998248686514884,27,24,41,23
353,0.3108581436077058,29,33,41,35
354,0.3117338003502627,39,37,47,55
355,0.3126094570928196,56,56,56,45
356,0.3134851138353765,77,85,73,70
357,0.31436077057793343,77,98,88,91
358,0.31523642732049034,105,106,103,105
359,0.3161120840630473,114,118,129,125
360,0.3169877408056042,126,132,154,145
361,0.3178633975481611,121,127,151,139
362,0.318739054290718,120,129,143,136
363,0.31961471103327493,136,129,107,108
364,0.3204903677758319,111,111,108,106
365,0.3213660245183888,102,102,79,87
366,0.3222416812609457,82,58,53,75
367,0.3231173380035026,42,38,34,48
368,0.3239929947460595,28,27,37,36
369,0.3248686514886165,19,31,17,22
370,0.3257443082311734,21,27,17,5
371,0.3266199649737303,5,8,8,13
372,0.3274956217162872,25,17,18,16
373,0.3283712784588441,28,22,21,26
374,0.329246935201401,33,28,19,21
375,0.330122591943958,55,54,48,44
376,0.3309982486865149,61,54,67,58
377,0.3318739054290718,68,85,96,82
378,0.3327495621716287,82,96,114,99
379,0.3336252189141856,102,109,123,116
380,0.3345008756567426,109,127,139,126
381,0.3353765323992995,135,127,134,132
382,0.3362521891418564,150,132,133,138
383,0.3371278458844133,170,136,118,126
384,0.3380035026269702,146,130,130,126
385,0.33887915936952717,119,119,116,110
386,0.3397548161120841,86,94,95,97
387,0.340630472854641,61,77,72,67
388,0.3415061295971979,45,63,70,59
389,0.3423817863397548,43,38,47,48
390,0.3432574430823117,24,20,10,24
391,0.34413309982486867,29,19,17,23
392,0.3450087565674256,35,16,22,29
393,0.3458844133099825,23,7,16,32
394,0.3467600700525394,30,24,31,30
395,0.3476357267950963,32,35,38,30
396,0.34851138353765326,28,55,61,54
397,0.34938704028021017,42,64,86,73
398,0.3502626970227671,64,77,96,85
399,0.351138353765324,77,88,101,103
400,0.3520140105078809,94,89,93,108
401,0.35288966725043786,142,120,110,110
402,0.35376532399299476,142,122,119,136
403,0.35464098073555167,146,139,123,129
404,0.3555166374781086,121,138,145,138
405,0.3563922942206655,117,136,147,141
406,0.3572679509632224,108,124,128,127
407,0.35814360770577935,86,106,111,102
408,0.35901926444833626,74,70,61,72
409,0.35989492119089317,72,36,26,45
410,0.3607705779334501,76,36,13,32
411,0.361646234676007,63,32,15,25
412,0.36252189141856395,50,37,35,24
413,0.36339754816112085,43,33,22,19
414,0.36427320490367776,13,26,33,28
415,0.36514886164623467,20,38,37,25
416,0.3660245183887916,22,37,59,45
417,0.36690017513134854,18,43,64,54
418,0.36777583187390545,52,62,82,69
419,0.36865148861646235,82,69,85,79
420,0.36952714535901926,107,97,100,100
421,0.37040280210157617,129,98,95,107
422,0.3712784588441331,140,127,114,123
423,0.37215411558669004,150,144,121,114
424,0.37302977232924694,129,141,146,143
425,0.37390542907180385,120,139,142,138
426,0.37478108581436076,119,135,157,140
427,0.37565674255691767,100,117,139,124
428,0.37653239929947463,84,89,105,95
429,0.37740805604203154,78,71,77,78
430,0.37828371278458844,66,52,46,50
431,0.37915936952714535,50,32,34,36
432,0.38003502626970226,63,32,6,14
433,0.3809106830122592,35,21,19,20
434,0.38178633975481613,36,28,21,13
435,0.38266199649737304,35,43,52,34
436,0.38353765323992994,26,36,60,38
437,0.38441330998248685,20,30,73,50
438,0.38528896672504376,34,45,77,70
439,0.3861646234676007,44,63,80,69
440,0.38704028021015763,80,78,107,90
441,0.38791593695271454,107,94,110,102
442,0.38879159369527144,130,100,85,100
443,0.38966725043782835,142,115,109,116
444,0.3905429071803853,164,142,122,130
445,0.3914185639229422,162,148,134,142
446,0.3922942206654991,146,139,144,144
447,0.39316987740805603,125,140,142,127
448,0.39404553415061294,91,121,143,118
449,0.3949211908931699,59,84,107,102
450,0.3957968476357268,61,71,86,72
451,0.3966725043782837,44,46,62,61
452,0.3975481611208406,44,28,22,34
453,0.39842381786339753,49,25,22,24
454,0.39929947460595444,60,17,20,21
455,0.4001751313485114,65,37,28,34
456,0.4010507880910683,61,41,32,33
457,0.4019264448336252,46,48,34,30
458,0.4028021015761821,55,50,46,40
459,0.40367775831873903,15,66,83,72
460,0.404553415061296,50,72,90,60
461,0.4054290718038529,64,90,122,102
462,0.4063047285464098,98,102,136,120
463,0.4071803852889667,86,122,155,136
464,0.4080560420315236,141,130,155,140
465,0.4089316987740806,149,136,126,144
466,0.4098073555166375,165,135,141,144
467,0.4106830122591944,163,135,127,131
468,0.4115586690017513,136,136,130,126
469,0.4124343257443082,135,121,108,108
470,0.4133099824868651,77,101,96,94
471,0.4141856392294221,74,60,63,70
472,0.415061295971979,37,64,58,64
473,0.4159369527145359,41,26,25,38
474,0.4168126094570928,13,24,20,31
475,0.4176882661996497,42,24,6,14
476,0.4185639229422067,6,22,23,29
477,0.4194395796847636,39,33,35,27
478,0.4203152364273205,22,26,29,33
479,0.4211908931698774,50,45,38,41
480,0.4220665499124343,54,65,71,66
481,0.42294220665499127,87,74,78,67
482,0.4238178633975482,90,91,94,90
483,0.4246935201401051,109,107,109,99
484,0.425569176882662,106,123,132,128
485,0.4264448336252189,123,122,136,129
486,0.4273204903677758,116,157,161,138
487,0.42819614711033277,162,140,159,149
488,0.4290718038528897,130,131,147,141
489,0.4299474605954466,138,121,120,124
490,0.4308231173380035,105,105,98,101
491,0.4316987740805604,86,77,73,88
492,0.43257443082311736,75,65,50,48
493,0.43345008756567427,58,51,48,49
494,0.4343257443082312,47,28,25,34
495,0.4352014010507881,39,19,23,32
496,0.436077057793345,28,35,20,14
497,0.43695271453590195,32,19,26,32
498,0.43782837127845886,12,25,22,22
499,0.43870402802101577,33,20,31,31
500,0.4395796847635727,14,41,40,38
501,0.4404553415061296,54,43,52,57
502,0.4413309982486865,55,69,75,60
503,0.44220665499124345,85,64,86,87
504,0.44308231173380036,86,105,102,103
505,0.44395796847635727,123,106,117,128
506,0.4448336252189142,119,132,143,139
507,0.4457092819614711,141,131,141,141
508,0.44658493870402804,134,131,138,140
509,0.44746059544658495,130,120,126,129
510,0.44833625218914186,138,127,106,107
511,0.44921190893169877,93,111,88,97
512,0.4500875656742557,92,60,74,91
513,0.45096322241681264,60,68,64,72
514,0.45183887915936954,51,34,31,37
515,0.45271453590192645,14,34,23,34
516,0.45359019264448336,22,19,9,9
517,0.45446584938704027,18,16,24,26
518,0.4553415061295972,22,22,22,22
519,0.45621716287215414,28,11,20,22
520,0.45709281961471104,25,32,22,18
521,0.45796847635726795,48,29,43,40
522,0.45884413309982486,32,54,62,57
523,0.45971978984238177,70,55,67,74
524,0.46059544658493873,58,83,90,89
525,0.46147110332749564,101,74,91,94
526,0.46234676007005254,100,123,133,120
527,0.46322241681260945,140,125,138,139
528,0.46409807355516636,111,128,158,146
529,0.4649737302977233,142,116,126,121
530,0.4658493870402802,119,135,144,135
531,0.46672504378283713,132,122,123,143
532,0.46760070052539404,105,111,107,105
533,0.46847635726795095,86,78,81,83
534,0.46935201401050786,81,63,62,61
535,0.4702276707530648,66,54,47,49
